# omega0=1, alpha=0.2
# theta0=0.8, theta_dot0=0
# t_start=0, t_end=200, h=0.00911928
#   t          x(t)                 v(t)       
55.0987 3.782184127720024e-01 1.270759403599083e-03
5.518989474463090e+01 3.776006121013665e-01 -1.481803088922406e-02
5.528108756476413e+01 3.755170330662145e-01 -3.086679565567742e-02
5.537228038489736e+01 3.719738582886519e-01 -4.681993279757640e-02
5.546347320503059e+01 3.669823574516450e-01 -6.262147259316669e-02
5.555466602516382e+01 3.605589216985891e-01 -7.821506322935674e-02
5.564585884529705e+01 3.527250979453030e-01 -9.354398842332293e-02
5.573705166543028e+01 3.435076198564329e-01 -1.085512240086502e-01
5.582824448556351e+01 3.329384316642118e-01 -1.231795391609979e-01
5.591943730569674e+01 3.210547005533908e-01 -1.373716465122961e-01
5.601063012582997e+01 3.078988130214556e-01 -1.510704037753314e-01
5.610182294596320e+01 2.935183504648703e-01 -1.642190677054187e-01
5.619301576609643e+01 2.779660392535042e-01 -1.767615993054352e-01
5.628420858622966e+01 2.612996707456707e-01 -1.886430171877573e-01
5.637540140636289e+01 2.435819870691532e-01 -1.998097940045371e-01
5.646659422649612e+01 2.248805290468367e-01 -2.102102889181217e-01
5.655778704662935e+01 2.052674433698818e-01 -2.197952072847446e-01
5.664897986676258e+01 1.848192470001752e-01 -2.285180771488676e-01
5.674017268689581e+01 1.636165477930362e-01 -2.363357308738065e-01
5.683136550702904e+01 1.417437214396102e-01 -2.432087793418269e-01
5.692255832716227e+01 1.192885459984406e-01 -2.491020657077375e-01
5.701375114729550e+01 9.634179647464254e-02 -2.539850857315065e-01
5.710494396742873e+01 7.299680306679984e-02 -2.578323622734240e-01
5.719613678756196e+01 4.934897778884949e-02 -2.606237626104284e-01
5.728732960769519e+01 2.549531514065138e-02 -2.623447487975262e-01
5.737852242782842e+01 1.533873304253574e-03 -2.629865532991406e-01
5.746971524796165e+01 -2.243675705318521e-02 -2.625462744711873e-01
5.756090806809488e+01 -4.631798891211558e-02 -2.610268890832129e-01
5.765210088822811e+01 -7.001177237945429e-02 -2.584371818124221e-01
5.774329370836134e+01 -9.342111804364051e-02 -2.547915943903622e-01
5.783448652849457e+01 -1.164506031016070e-01 -2.501099997100815e-01
5.792567934862780e+01 -1.390068537483999e-01 -2.444174085857382e-01
5.801687216876103e+01 -1.609989981174363e-01 -2.377436188917492e-01
5.810806498889426e+01 -1.823390850229957e-01 -2.301228184096332e-01
5.819925780902749e+01 -2.029424648439968e-01 -2.215931538182968e-01
5.829045062916072e+01 -2.227281300527758e-01 -2.121962788462626e-01
5.838164344929395e+01 -2.416190140862271e-01 -2.019768946590637e-01
5.847283626942718e+01 -2.595422484320246e-01 -1.909822951050196e-01
5.856402908956041e+01 -2.764293789156210e-01 -1.792619285340619e-01
5.865522190969364e+01 -2.922165431853354e-01 -1.668669866015590e-01
5.874641472982687e+01 -3.068446122705717e-01 -1.538500288492921e-01
5.883760754996010e+01 -3.202592998069566e-01 -1.402646500029833e-01
5.892880037009333e+01 -3.324112430646207e-01 -1.261651949259542e-01
5.901999319022656e+01 -3.432560602723762e-01 -1.116065241045652e-01
5.911118601035979e+01 -3.527543888988751e-01 -9.664383048944550e-02
5.920237883049302e+01 -3.608719095362201e-01 -8.133250654443844e-02
5.929357165062626e+01 -3.675793598418696e-01 -6.572805851934126e-02
5.938476447075949e+01 -3.728525426456262e-01 -4.988606330858733e-02
5.947595729089272e+01 -3.766723318382807e-01 -3.386216182112111e-02
5.956715011102595e+01 -3.790246790481360e-01 -1.771208159245288e-02
5.965834293115918e+01 -3.799006234041350e-01 -1.491680435808711e-03
5.974953575129241e+01 -3.792963059039453e-01 1.474299773348547e-02
5.984072857142564e+01 -3.772129890771559e-01 3.093566415155136e-02
5.993192139155887e+01 -3.736570817831726e-01 4.702973289392287e-02
6.002311421169210e+01 -3.686401681359834e-01 6.296828418003717e-02
6.011430703182533e+01 -3.621790387291182e-01 7.869405202501245e-02
6.020549985195856e+01 -3.542957215688692e-01 9.414944424646413e-02
6.029669267209179e+01 -3.450175094365986e-01 1.092766018480137e-01
6.038788549222502e+01 -3.343769798151623e-01 1.240175035648822e-01
6.047907831235825e+01 -3.224120030521472e-01 1.383141198892098e-01
6.057027113249148e+01 -3.091657341137320e-01 1.521086192194760e-01
6.066146395262471e+01 -2.946865831247741e-01 1.653436269343103e-01
6.075265677275794e+01 -2.790281599068194e-01 1.779625362206595e-01
6.084384959289117e+01 -2.622491879252136e-01 1.899098674447221e-01
6.093504241302440e+01 -2.444133834429483e-01 2.011316708064818e-01
6.102623523315763e+01 -2.255892962495524e-01 2.115759650392822e-01
6.111742805329086e+01 -2.058501090783443e-01 2.211932030855678e-01
6.120862087342409e+01 -1.852733937272948e-01 2.299367540828492e-01
6.129981369355732e+01 -1.639408229325144e-01 2.377633897131197e-01
6.139100651369055e+01 -1.419378381765747e-01 2.446337620810470e-01
6.148219933382378e+01 -1.193532748076137e-01 2.505128598559769e-01
6.157339215395701e+01 -9.627894705540171e-02 2.553704294873920e-01
6.166458497409024e+01 -7.280919670991838e-02 2.591813489077886e-01
6.175577779422347e+01 -4.904041032804313e-02 2.619259422696556e-01
6.184697061435670e+01 -2.507051080763802e-02 2.635902258946920e-01
6.193816343448993e+01 -9.984299725701866e-04 2.641660776854910e-01
6.202935625462316e+01 2.307643058944676e-02 2.636513246781528e-01
6.212054907475639e+01 4.705474282967530e-02 2.620497460920427e-01
6.221174189488962e+01 7.083779196163775e-02 2.593709920375196e-01
6.230293471502285e+01 9.432800502754718e-02 2.556304208428236e-01
6.239412753515608e+01 1.174294611236346e-01 2.508488606262024e-01
6.248532035528931e+01 1.400483767253015e-01 2.450523031457891e-01
6.257651317542254e+01 1.620935603817298e-01 2.382715400006799e-01
6.266770599555577e+01 1.834768320444125e-01 2.305417528472575e-01
6.275889881568900e+01 2.041134034111062e-01 2.219020703769030e-01
6.285009163582223e+01 2.239222168580043e-01 2.123951053455349e-01
6.294128445595546e+01 2.428262417492313e-01 2.020664849515713e-01
6.303247727608869e+01 2.607527281059891e-01 1.909643873533991e-01
6.312367009622192e+01 2.776334187433006e-01 1.791390961498675e-01
6.321486291635515e+01 2.934047220011207e-01 1.666425832853468e-01
6.330605573648838e+01 3.080078480762333e-01 1.535281291645911e-01
6.339724855662161e+01 3.213889126770840e-01 1.398499868586806e-01
6.348844137675484e+01 3.334990122587648e-01 1.256630952395169e-01
6.357963419688807e+01 3.442942754409093e-01 1.110228437810198e-01
6.367082701702130e+01 3.537358953657769e-01 9.598488968744963e-02
6.376201983715453e+01 3.617901477224546e-01 8.060502602060958e-02
6.385321265728776e+01 3.684283989566384e-01 6.493909765446114e-02
6.394440547742099e+01 3.736271088192895e-01 4.904296023293800e-02
6.403559829755424e+01 3.773678309006025e-01 3.297247587866502e-02
6.412679111768755e+01 3.796372141698338e-01 1.678353822139693e-02
6.421798393782085e+01 3.804270078201644e-01 5.321184016752556e-04
6.430917675795415e+01 3.797340709256089e-01 -1.572567693262191e-02
6.440036957808745e+01 3.775603875794277e-01 -3.193354497647553e-02
6.449156239822075e+01 3.739130873262103e-01 -4.803493287970193e-02
6.458275521835405e+01 3.688044698484506e-01 -6.397299983056706e-02
6.467394803848735e+01 3.622520320484552e-01 -7.969060383886137e-02
6.476514085862065e+01 3.542784949028038e-01 -9.513032119363954e-02
6.485633367875396e+01 3.449118267835808e-01 -1.102345055571290e-01
6.494752649888726e+01 3.341852593614402e-01 -1.249453923953671e-01
6.503871931902056e+01 3.221372917519509e-01 -1.392052529575234e-01
6.512991213915386e+01 3.088116782581971e-01 -1.529566003264373e-01
6.522110495928716e+01 2.942573949160412e-01 -1.661424482081857e-01
6.531229777942046e+01 2.785285800768827e-01 -1.787066211537851e-01
6.540349059955376e+01 2.616844444746493e-01 -1.905941128670068e-01
6.549468341968706e+01 2.437891466220910e-01 -2.017514872143218e-01
6.558587623982037e+01 2.249116299627908e-01 -2.121273145904381e-01
6.567706905995367e+01 2.051254189591237e-01 -2.216726344863933e-01
6.576826188008697e+01 1.845083722046801e-01 -2.303414335401577e-01
6.585945470022027e+01 1.631423916867896e-01 -2.380911271041220e-01
6.595064752035357e+01 1.411130884579520e-01 -2.448830315148049e-01
6.604184034048687e+01 1.185094061650415e-01 -2.506828138604813e-01
6.613303316062017e+01 9.542320508800635e-02 -2.554609061572593e-01
6.622422598075347e+01 7.194881050821585e-02 -2.591928714860018e-01
6.631541880088677e+01 4.818253031250110e-02 -2.618597108077364e-01
6.640661162102008e+01 2.422214769580807e-02 -2.634481008320960e-01
6.649780444115338e+01 1.663956109047792e-04 -2.639505554020031e-01
6.658899726128668e+01 -2.388557980788134e-02 -2.633655052925633e-01
6.668019008141998e+01 -4.783475927519022e-02 -2.616972939957016e-01
6.677138290155328e+01 -7.158278617306961e-02 -2.589560898519312e-01
6.686257572168658e+01 -9.503249065110869e-02 -2.551577176664625e-01
6.695376854181988e+01 -1.180883949097154e-01 -2.503234155788651e-01
6.704496136195318e+01 -1.406571932044722e-01 -2.444795253227015e-01
6.713615418208649e+01 -1.626482009457324e-01 -2.376571260092371e-01
6.722734700221979e+01 -1.839737682659452e-01 -2.298916231152320e-01
6.731853982235309e+01 -2.045496545436823e-01 -2.212223053932560e-01
6.740973264248639e+01 -2.242953615602416e-01 -2.116918829269998e-01
6.750092546261969e+01 -2.431344241731672e-01 -2.013460195252751e-01
6.759211828275299e+01 -2.609946585735331e-01 -1.902328721148110e-01
6.768331110288629e+01 -2.778083693065242e-01 -1.784026488041065e-01
6.777450392301959e+01 -2.935125172392658e-01 -1.659071959165752e-01
6.786569674315290e+01 -3.080488515243711e-01 -1.527996226109976e-01
6.795688956328620e+01 -3.213640093082674e-01 -1.391339698069833e-01
6.804808238341950e+01 -3.334095874539412e-01 -1.249649280996829e-01
6.813927520355280e+01 -3.441421908799890e-01 -1.103476072645184e-01
6.823046802368610e+01 -3.535234622607512e-01 -9.533735789508603e-02
6.832166084381940e+01 -3.615200977912854e-01 -7.998964375172049e-02
6.841285366395270e+01 -3.681038535069960e-01 -6.435996157962748e-02
6.850404648408600e+01 -3.732515462763590e-01 -4.850380352782062e-02
6.859523930421931e+01 -3.769450530753883e-01 -3.247665589649966e-02
6.868643212435261e+01 -3.791713115258327e-01 -1.633402678463049e-02
6.877762494448591e+01 -3.799223239589563e-01 -1.314943170179731e-04
6.886881776461921e+01 -3.791951664776131e-01 1.607523348952615e-02
6.896001058475251e+01 -3.769920036563029e-01 3.223025650360904e-02
6.905120340488581e+01 -3.733201086673589e-01 4.827742724674107e-02
6.914239622501911e+01 -3.681918877767146e-01 6.416031178413417e-02
6.923358904515241e+01 -3.616249073399331e-01 7.982217538570972e-02
6.932478186528571e+01 -3.536419206729892e-01 9.520600085102032e-02
6.941597468541902e+01 -3.442708914966160e-01 1.102545463812578e-01
6.950716750555232e+01 -3.335450100807268e-01 1.249104486274049e-01
6.959836032568562e+01 -3.215026977678830e-01 1.391163750653164e-01
6.968955314581892e+01 -3.081875952512905e-01 1.528152281726672e-01
6.978074596595222e+01 -2.936485298398517e-01 1.659504020444449e-01
6.987193878608552e+01 -2.779394569732168e-01 1.784660901277730e-01
6.996313160621882e+01 -2.611193714618841e-01 1.903076407382676e-01
7.005432442635212e+01 -2.432521843240086e-01 2.014219550036024e-01
7.014551724648543e+01 -2.244065616682308e-01 2.117579199388278e-01
7.023671006661873e+01 -2.046557228200667e-01 2.212668675718006e-01
7.032790288675203e+01 -1.840771957903168e-01 2.299030494882033e-01
7.041909570688533e+01 -1.627525292122132e-01 2.376241149348471e-01
7.051028852701863e+01 -1.407669609971605e-01 2.443915797813647e-01
7.060148134715193e+01 -1.182090451382438e-01 2.501712732559647e-01
7.069267416728523e+01 -9.517023928257606e-02 2.549337494850957e-01
7.078386698741853e+01 -7.174445685136689e-02 2.586546515018927e-01
7.087505980755184e+01 -4.802758856278356e-02 2.613150165405636e-01
7.096625262768514e+01 -2.411699916127546e-02 2.629015130721508e-01
7.105744544781844e+01 -1.110059362191430e-04 2.634066021023434e-01
7.114863826795174e+01 2.389165381275564e-02 2.628286176597369e-01
7.123983108808504e+01 4.779235886312482e-02 2.611717640473568e-01
7.133102390821834e+01 7.149313611299819e-02 2.584460301904922e-01
7.142221672835164e+01 9.489718114053586e-02 2.546670241613082e-01
7.151340954848494e+01 1.179093602402765e-01 2.498557335671495e-01
7.160460236861825e+01 1.404366875253703e-01 2.440382198353275e-01
7.169579518875155e+01 1.623887715107144e-01 2.372452564088946e-01
7.178698800888485e+01 1.836782265789083e-01 2.295119224038741e-01
7.187818082901815e+01 2.042210458354056e-01 2.208771643132784e-01
7.196937364915145e+01 2.239369330340794e-01 2.113833388499307e-01
7.206056646928475e+01 2.427495924513241e-01 2.010757499997076e-01
7.215175928941805e+01 2.605869767587695e-01 1.900021928365262e-01
7.224295210955135e+01 2.773814940482002e-01 1.782125156797107e-01
7.233414492968465e+01 2.930701761592296e-01 1.657582108201878e-01
7.242533774981796e+01 3.075948113192095e-01 1.526920423830314e-01
7.251653056995126e+01 3.209020448018347e-01 1.390677180151499e-01
7.260772339008456e+01 3.329434518297957e-01 1.249396090742416e-01
7.269891621021786e+01 3.436755872792340e-01 1.103625219308099e-01
7.279010903035116e+01 3.530600168884303e-01 9.539152095417246e-02
7.288130185048446e+01 3.610633346353282e-01 8.008180180165005e-02
7.297249467061776e+01 3.676571707388717e-01 6.448861182228889e-02
7.306368749075106e+01 3.728181943729096e-01 4.866721276630327e-02
7.315488031088437e+01 3.765281146773098e-01 3.267287959209767e-02
7.324607313101767e+01 3.787736830302044e-01 1.656092800805772e-02
7.333726595115097e+01 3.795466988310661e-01 3.867624922064576e-04
7.342845877128427e+01 3.788440202608182e-01 -1.579406409101772e-02
7.351965159141757e+01 3.766675806573219e-01 -3.192578850624743e-02
7.361084441155087e+01 3.730244102975528e-01 -4.795238209629984e-02
7.370203723168417e+01 3.679266625367515e-01 -6.381751176276645e-02
7.379323005181747e+01 3.613916424448121e-01 -7.946452560039760e-02
7.388442287195078e+01 3.534418353256986e-01 -9.483647106600897e-02
7.397561569208408e+01 3.441049318306353e-01 -1.098761525640998e-01
7.406680851221738e+01 3.334138458030615e-01 -1.245262340892586e-01
7.415800133235068e+01 3.214067205442573e-01 -1.387293910987527e-01
7.424919415248398e+01 3.081269188825044e-01 -1.524285141236155e-01
7.434038697261728e+01 2.936229922821956e-01 -1.655669647977605e-01
7.443157979275058e+01 2.779486242554574e-01 -1.780888830365130e-01
7.452277261288388e+01 2.611625435460583e-01 -1.899395420829481e-01
7.461396543301719e+01 2.433284029467085e-01 -2.010657461269145e-01
7.470515825315049e+01 2.245146201830831e-01 -2.114162632606178e-01
7.479635107328379e+01 2.047941780408251e-01 -2.209422847454659e-01
7.488754389341709e+01 1.842443818078284e-01 -2.295979000098134e-01
7.497873671355039e+01 1.629465731281829e-01 -2.373405755571612e-01
7.506992953368369e+01 1.409858004841112e-01 -2.441316251136423e-01
7.516112235381699e+01 1.184504476995704e-01 -2.499366579446797e-01
7.525231517395029e+01 9.543182305052061e-02 -2.547259923686544e-01
7.534350799408359e+01 7.202371272563964e-02 -2.584750221133059e-01
7.543470081421690e+01 4.832190345997537e-02 -2.611645242957761e-01
7.552589363435020e+01 2.442368011668379e-02 -2.627808994293757e-01
7.561708645448350e+01 4.273047766207828e-04 -2.633163359112717e-01
7.570827927461680e+01 -2.356851552333866e-02 -2.627688938417356e-01
7.579947209475010e+01 -4.746516491163472e-02 -2.611425056622981e-01
7.589066491488340e+01 -7.116465106751677e-02 -2.584468938567211e-01
7.598185773501670e+01 -9.457012642330455e-02 -2.546974087067408e-01
7.607305055515000e+01 -1.175863911294464e-01 -2.499147917058178e-01
7.616424337528331e+01 -1.401203713491141e-01 -2.441248725887488e-01
7.625543619541661e+01 -1.620815672687701e-01 -2.373582099287479e-01
7.634662901554991e+01 -1.833824661929782e-01 -2.296496868041571e-01
7.643782183568321e+01 -2.039389171925120e-01 -2.210380740880302e-01
7.652901465581651e+01 -2.236704649474982e-01 -2.115655744374042e-01
7.662020747594981e+01 -2.425006416236153e-01 -2.012773600553019e-01
7.671140029608311e+01 -2.603572167921695e-01 -1.902211167937101e-01
7.680259311621641e+01 -2.771724065105678e-01 -1.784466062087317e-01
7.689378593634972e+01 -2.928830436799858e-01 -1.660052558361728e-01
7.698497875648302e+01 -3.074307126601780e-01 -1.529497863053828e-01
7.707617157661632e+01 -3.207618518232237e-01 -1.393338820360057e-01
7.716736439674962e+01 -3.328278282521309e-01 -1.252119102522907e-01
7.725855721688292e+01 -3.435849891279727e-01 -1.106386909851867e-01
7.734975003701622e+01 -3.529946944991402e-01 -9.566931868904702e-02
7.744094285714952e+01 -3.610233360933666e-01 -8.035903414337711e-02
7.753213567728282e+01 -3.676423466279470e-01 -6.476314349592514e-02
7.762332849741613e+01 -3.728282037111210e-01 -4.893697967568585e-02
7.771452131754943e+01 -3.765624319264989e-01 -3.293589999669842e-02
7.780571413768273e+01 -3.788316060739504e-01 -1.681531261005853e-02
7.789690695781603e+01 -3.796273578275794e-01 -6.307235586249134e-04
7.798809977794933e+01 -3.789463872885664e-01 1.556220444353399e-02
7.807929259808263e+01 -3.767904800826776e-01 3.170759074162115e-02
7.817048541821593e+01 -3.731665298043848e-01 4.774928229448435e-02
7.826167823834923e+01 -3.680865647670684e-01 6.363081516970760e-02
7.835287105848253e+01 -3.615677772067740e-01 7.929540062598298e-02
7.844406387861584e+01 -3.536325523301140e-01 9.468594369175455e-02
7.853525669874914e+01 -3.443084939191547e-01 1.097451011532434e-01
7.862644951888244e+01 -3.336284426304845e-01 1.244153846240448e-01
7.871764233901574e+01 -3.216304826736558e-01 1.386393129014729e-01
7.880883515914904e+01 -3.083579322453200e-01 1.523596161478410e-01
7.890002797928234e+01 -2.938593129463534e-01 1.655194926026086e-01
7.899122079941564e+01 -2.781882934332259e-01 1.780629165782060e-01
7.908241361954894e+01 -2.614036027604044e-01 1.899349944729659e-01
7.917360643968225e+01 -2.435689092608796e-01 2.010823635135097e-01
7.926479925981555e+01 -2.247526613838291e-01 2.114536259894154e-01
7.935599207994885e+01 -2.050278876518680e-01 2.209998099447339e-01
7.944718490008215e+01 -1.844719537977239e-01 2.296748457265891e-01
7.953837772021545e+01 -1.631662761664376e-01 2.374360465420695e-01
7.962957054034875e+01 -1.411959915921046e-01 2.442445803157461e-01
7.972076336048205e+01 -1.186495851391662e-01 2.500659197343799e-01
7.981195618061535e+01 -9.561847829378407e-02 2.548702574582898e-01
7.990314900074866e+01 -7.219658135416782e-02 2.586328740938635e-01
7.999434182088196e+01 -4.847981485215088e-02 2.613344476564670e-01
8.008553464101526e+01 -2.456560579559515e-02 2.629612948773535e-01
8.017672746114856e+01 -5.523653101405148e-04 2.635055367640448e-01
8.026792028128186e+01 2.346104515630779e-02 2.629651832272173e-01
8.035911310141516e+01 4.737585154919065e-02 2.613441342329775e-01
8.045030592154846e+01 7.109390121984735e-02 2.586520977066409e-01
8.054149874168176e+01 9.451818575885346e-02 2.549044271737433e-01
8.063269156181507e+01 1.175533455673831e-01 2.501218847471362e-01
8.072388438194837e+01 1.401061497055831e-01 2.443303374350390e-01
8.081507720208167e+01 1.620859453786759e-01 2.375603967490401e-01
8.090627002221497e+01 1.834050724062575e-01 2.298470131503605e-01
8.099746284234827e+01 2.039792391246556e-01 2.212290379305329e-01
8.108865566248157e+01 2.237278573490385e-01 2.117487656507046e-01
8.117984848261487e+01 2.425743352226800e-01 2.014514702620967e-01
8.127104130274817e+01 2.604463279581047e-01 1.903849475251039e-01
8.136223412288147e+01 2.772759475849378e-01 1.785990753850656e-01
8.145342694301478e+01 2.929999338236423e-01 1.661454026155249e-01
8.154461976314808e+01 3.075597890711122e-01 1.530767743835864e-01
8.163581258328138e+01 3.209018811889789e-01 1.394470015119726e-01
8.172700540341468e+01 3.329775183120117e-01 1.253105781948850e-01
8.181819822354798e+01 3.437430002334441e-01 1.107224508526296e-01
8.190939104368128e+01 3.531596510749590e-01 9.573783875899021e-02
8.200058386381458e+01 3.611938379164633e-01 8.041210511182205e-02
